%E,N(m),G(m/s2):
1.00,-1.166597119117,-0.012738633319
2.00,-1.166597119117,-0.012738633319
3.00,-2.098368368511,-0.066715016239
4.00,-3.263877797200,-0.118665788611
5.00,-5.115388990775,-0.356048906189
6.00,-6.239445793744,-0.668470760114
7.00,-8.738398927988,-1.254142178767
8.00,-10.359225073198,-1.455885542427
9.00,-11.743595763747,-1.664494725230
10.00,-13.372787476351,-1.780736461976
11.00,-15.440755827008,-2.146122423229
12.00,-17.252427202845,-2.595890441674
13.00,-18.844480153606,-2.960781082487
14.00,-20.631074469120,-3.501637067216
15.00,-22.543742734860,-4.368643471593
16.00,-24.122731680616,-4.786461239237
17.00,-25.640831962597,-5.389079950883
18.00,-27.407577846687,-5.991619099401
19.00,-29.639062033097,-6.673471554294
20.00,-31.619925343545,-7.370738035147
21.00,-33.433567477912,-7.812492098957
22.00,-34.801923557624,-8.108467839711
23.00,-36.362345096550,-8.591026021316
24.00,-37.908129726795,-9.118593699134
25.00,-40.090412687646,-9.944478390374
26.00,-42.037886382268,-10.730192211528
27.00,-43.316692262984,-11.299977714545
28.00,-44.798704160268,-11.986576952881
29.00,-46.564755216996,-12.591149619708
30.00,-47.923393774401,-12.928938415162
31.00,-49.470964551404,-13.451243372005
32.00,-51.426596807445,-14.216424709424
33.00,-52.725737766775,-14.738184010050
34.00,-54.224372148331,-15.387701344843
35.00,-56.284586001014,-16.483129720255
36.00,-58.126646633101,-16.181041865220
37.00,-58.969882917611,-15.063476400253
38.00,-59.558455354575,-13.793207733220
39.00,-60.163742367878,-11.782330404409
40.00,-60.634078134376,-10.218181420287
41.00,-61.008707507687,-8.869236338880
42.00,-61.529632895582,-7.321200642255
43.00,-62.196521691674,-5.577726014366
44.00,-62.868169713550,-4.088878570037
45.00,-63.364781009771,-2.779918211406
46.00,-63.876584936159,-1.476823149281
47.00,-64.508772366201,0.525759945948
48.00,-64.235516939107,2.136073346917
49.00,-63.445314174781,2.632753024739
50.00,-61.750570362167,3.415241270052
51.00,-59.778476846820,4.136938690531
52.00,-58.457135644261,4.599602095631
53.00,-56.697454333253,5.222471366133
54.00,-54.685282356836,5.823440531165
55.00,-52.400149198839,6.295257121238
56.00,-50.825061374142,6.727548830929
57.00,-49.312302612674,7.343453618522
58.00,-48.011209321251,7.860325214778
59.00,-46.258352692967,8.502149244496
60.00,-44.324754060826,9.321414970488
61.00,-42.806947208156,9.924772356921
62.00,-41.114323944937,10.711837114902
63.00,-39.571978569329,11.249376434504
64.00,-38.493163094982,11.693525377338
65.00,-36.968401806562,12.279085614303
66.00,-35.192434121192,12.853875336694
67.00,-33.667696259685,13.439496572190
68.00,-32.183773160006,14.121955370958
69.00,-30.691696782830,14.786399396029
70.00,-28.646998556823,15.910522880797
71.00,-26.428550769760,16.633664540862
72.00,-24.745955751563,15.377132008559
73.00,-24.094668276752,13.627769533370
74.00,-23.618210893793,12.065474381998
75.00,-22.986090104671,10.309095222362
76.00,-22.357066290522,8.801744294737
77.00,-21.547248073904,6.613448405128
78.00,-21.002440187675,5.073655514873
79.00,-20.242242070623,3.368796791320
80.00,-19.453004446212,1.938803172456
81.00,-18.539221522245,0.585001656116
82.00,-17.877054505886,-1.160271757103
83.00,-18.434308912020,-2.444587733351
84.00,-20.101351242572,-3.721682040028
85.00,-21.803561280420,-4.487792627015
86.00,-23.673369486076,-5.443730529844
87.00,-25.321888608830,-6.319418343141
88.00,-26.726553408677,-7.152901743004
89.00,-28.958434127211,-8.420374123775
90.00,-31.179396017979,-10.125463059800
91.00,-32.577675665248,-10.969614589924
92.00,-33.434334998945,-11.340081723555
93.00,-35.167202642023,-12.034066000046
94.00,-36.698679856445,-12.601829436245
95.00,-38.442591029083,-13.267575834203
96.00,-39.696194649748,-13.890855837297
97.00,-41.360309948436,-14.736529957224
98.00,-43.028599181382,-15.573939940257
99.00,-44.589757828102,-16.597281586148
100.00,-46.319117929263,-17.788631090077
101.00,-47.492105620741,-18.552895360890
102.00,-48.706248541577,-19.249929770216
103.00,-50.799340864811,-20.281146997992
104.00,-52.412885645862,-21.219719149713
105.00,-53.593561740333,-21.972051496450
106.00,-54.782421397514,-22.711384111398
107.00,-56.417983955022,-23.611039359214
108.00,-58.039434360149,-24.535886929442
109.00,-59.661089872907,-25.460374810589
110.00,-61.244724065676,-26.448578832002
111.00,-62.849039897713,-27.402840408049
112.00,-64.682705575175,-28.426398019177
113.00,-66.685565194137,-29.623476876720
114.00,-68.291079850776,-30.575720087125
115.00,-69.469135283571,-31.332149460737
116.00,-71.153146605877,-32.586783218589
117.00,-72.678748100564,-33.662415369398
118.00,-74.348949432384,-34.935375506711
119.00,-75.698831976401,-35.854937845618
120.00,-77.236147915982,-36.913759901657
121.00,-79.010114554952,-38.037611477186
122.00,-80.706023017158,-39.276116417757
123.00,-81.595704615213,-40.030820177649
124.00,-83.155356578470,-41.056456661960
125.00,-84.481809312690,-42.009504888263
126.00,-85.855779352609,-42.892671977314
127.00,-87.115859498788,-43.931890819994
128.00,-88.780829322443,-45.211685915437
129.00,-90.432997052200,-46.507965897829
130.00,-91.692592140264,-47.547772606744
131.00,-92.952605892745,-48.587071948289
132.00,-94.469533507971,-49.674902382965
133.00,-95.893639034390,-50.881703068277
134.00,-97.251707201475,-52.162365122838
135.00,-98.742719902389,-53.285452639535
136.00,-100.339523451128,-52.941946883379
137.00,-101.309763993510,-51.628017255242
138.00,-102.406511886572,-49.837167161275
139.00,-103.276314982651,-48.454698227870
140.00,-104.206855636252,-47.112360017964
141.00,-105.692854731513,-45.313401671218
142.00,-107.239568135389,-43.566369304398
143.00,-108.616886343153,-41.981126561296
144.00,-109.656193471295,-40.721119231487
145.00,-110.792799865211,-39.240386186758
146.00,-111.999468910842,-37.521680332251
147.00,-112.580233594120,-36.509838697523
148.00,-112.689499493790,-35.348300030805
149.00,-111.694444666249,-34.363482336921
150.00,-110.702416835402,-33.749485680630
151.00,-109.501254084400,-33.030313903093
152.00,-107.901451315349,-32.068505427053
153.00,-107.332507680456,-31.660702606668
154.00,-105.711866493171,-30.325216874031
155.00,-104.969679507895,-29.759293213104
156.00,-103.637884747945,-28.813724339278
157.00,-102.666961141166,-28.166871604176
158.00,-101.310697254118,-27.256747411294
159.00,-100.542822991622,-26.726200308666
160.00,-99.313754642680,-25.650482515093
161.00,-98.050109782620,-24.276566174086
162.00,-96.814056575159,-22.877774941353
163.00,-96.041534560106,-22.354018464191
164.00,-93.720022799643,-23.448715191057
165.00,-92.623041117071,-24.658842856174
166.00,-91.171095589854,-26.176029128849
167.00,-90.217724956067,-27.201253218808
168.00,-88.872877610543,-28.495791770447
169.00,-87.361386949442,-29.953665558334
170.00,-86.230190753367,-31.131873071365
171.00,-85.098612584551,-32.309713733609
172.00,-83.865329627855,-33.710948044197
173.00,-82.615088223589,-35.097072452575
174.00,-81.993313041828,-35.793137632323
175.00,-80.850629448557,-37.269185954742
176.00,-80.775935402942,-39.134357594027
177.00,-81.683019185019,-40.200752929863
178.00,-83.109410805953,-41.404850678459
179.00,-84.563338340664,-42.575550968138
180.00,-85.601429282354,-43.514894992860
181.00,-87.139956186364,-44.944207752768
182.00,-88.202933908891,-45.855294116080
183.00,-89.504775519821,-46.841694743527
184.00,-91.239591453846,-48.025085496851
185.00,-92.514679839370,-49.045833941317
186.00,-93.712630374529,-50.156100707950
187.00,-94.857133208113,-51.321386527694
188.00,-96.025249403113,-52.463000443497
189.00,-97.869509431191,-54.248072634366
190.00,-98.868034291099,-55.229371826328
191.00,-100.214718257535,-56.521999668743
192.00,-101.676806381694,-57.682492133880
193.00,-103.686524440699,-59.278991774058
194.00,-104.878688036610,-60.395470048975
195.00,-106.193162738828,-61.720838187144
196.00,-107.505456894591,-63.048365397108
197.00,-108.574805061978,-63.951966247542
198.00,-110.190864065737,-64.188886221688
199.00,-111.768695737953,-63.191443662643
200.00,-112.595024010467,-62.367858392525
201.00,-113.951219349486,-61.085213216777
202.00,-115.486066062528,-59.651949260814
203.00,-116.762735697350,-58.633179207612
204.00,-117.937468357042,-57.498374838555
205.00,-119.332889775568,-55.929044068857
206.00,-120.725700685985,-54.357395963262
207.00,-121.979697788053,-52.974668328313
208.00,-122.912930651758,-51.931080084752
209.00,-124.246986773293,-50.625423656344
210.00,-125.595145678578,-49.703336163815
211.00,-126.715094124287,-50.030179536188
212.00,-127.809245570014,-51.242866796611
213.00,-128.960000304954,-52.712631398327
214.00,-130.152062740648,-53.829217681238
215.00,-131.723524728206,-55.222238579021
216.00,-133.206191526312,-56.709416835248
217.00,-134.705006728719,-58.180318935672
218.00,-135.400212547201,-59.912696872034
219.00,-134.671575959696,-62.129345957432
220.00,-133.404331089810,-63.803887817090
221.00,-132.589044849330,-64.638405316724
222.00,-131.362293140367,-65.716764265467
223.00,-129.642655976924,-67.293879502395
224.00,-128.608719388830,-68.237794292935
225.00,-126.648802609764,-69.503958051531
226.00,-124.878233717445,-70.633155021750
227.00,-123.486117803748,-71.487433115001
228.00,-122.131213788838,-72.399580519843
229.00,-121.250589665559,-73.164833592107
230.00,-120.481746162036,-73.693975140468
231.00,-119.892356198878,-74.071625072717
232.00,-118.557433365554,-75.376395348863
233.00,-117.046278966057,-76.472231479553
234.00,-115.255418597548,-76.998789724146
235.00,-113.341696180065,-76.134112611679
236.00,-112.045101252509,-74.791247749424
237.00,-111.076523859906,-73.476091632335
238.00,-110.024432397755,-71.934161672929
239.00,-108.811997566951,-69.940560352329
240.00,-108.054380199822,-68.493565638171
241.00,-107.078391630566,-66.374157523360
242.00,-106.184420242849,-64.735481349619
243.00,-105.434765711004,-63.025960209846
244.00,-105.802949121788,-60.485838410837
245.00,-106.597704828596,-59.631745630393
246.00,-107.900114602321,-59.118200324402
247.00,-110.158315091231,-58.530854603100
248.00,-111.469346547629,-58.039736979373
249.00,-112.990520989529,-57.444920961526
250.00,-113.867305111202,-57.124982350080
251.00,-115.172958705660,-56.619741129197
252.00,-117.181147360017,-56.005592671161
253.00,-118.512523988298,-55.572653560351
254.00,-119.550951196636,-55.040882891647
255.00,-121.498248048742,-54.254730889946
256.00,-123.039775331910,-53.714849965088
257.00,-124.824737206700,-53.168630641014
258.00,-125.706831085662,-51.262873471620
259.00,-125.108067957578,-49.494844297400
260.00,-124.513576891676,-48.227334781632
261.00,-123.527356255588,-46.373320526845
262.00,-122.760270725999,-44.931322757057
263.00,-122.421793945459,-43.814835148462
264.00,-122.101679606338,-42.213178322651
265.00,-121.831178112527,-40.130672874436
266.00,-121.450463997825,-38.783432449394
267.00,-120.632991434912,-37.105283751176
268.00,-119.738165769844,-35.205471384353
269.00,-119.087161789610,-33.707482200314
270.00,-118.694839301603,-32.608758314838
271.00,-118.083028355261,-30.599856284889
272.00,-117.773041742296,-28.522861268096
273.00,-117.466067229416,-27.397304623785
274.00,-116.746605008729,-25.424394561718
275.00,-116.172104731577,-24.147699832524
276.00,-115.598975202739,-22.618222692795
277.00,-115.154482105256,-21.046534535409
278.00,-114.917194798799,-19.195011060365
279.00,-114.579314166181,-17.122371034190
280.00,-114.340571809534,-15.271034616468
281.00,-114.026108822384,-13.668258647253
282.00,-113.217223622785,-10.987642163332
283.00,-112.586634634021,-9.230712463061
284.00,-112.263300846482,-8.109745749485
285.00,-111.984076179690,-6.976985979469
286.00,-111.425372806789,-4.711529075100
287.00,-110.917576263451,-2.673848366408
288.00,-110.338470428317,-1.146624018288
289.00,-109.828655066613,0.890552531982
290.00,-109.296855421582,2.679863455771
291.00,-108.846823929597,4.005560124026
292.00,-108.299392622180,5.790150667569
293.00,-107.676663679942,7.549881643867
294.00,-107.170335492037,9.102753030657
295.00,-106.989591864525,10.960648664313
296.00,-106.655173218975,12.797115003224
297.00,-106.438746773906,13.705008556999
298.00,-105.958818922981,15.749432499802
299.00,-105.343428624464,18.480969572677
300.00,-104.850750079954,20.522358279362
301.00,-104.604779224119,21.900581170653
302.00,-104.355610739910,23.514797031142
303.00,-104.046619004724,25.355712170966
304.00,-103.696430316312,27.426308192044
305.00,-103.497699426192,28.575924277711
306.00,-103.070365672376,30.631985041125
307.00,-102.549397405684,32.666338025516
308.00,-102.245960597632,34.271237985419
309.00,-102.046006746415,35.656885291692
310.00,-101.825771157465,37.275302439135
311.00,-101.625738775457,39.600045756277
312.00,-101.516376473444,41.463506067457
313.00,-101.390711709603,43.091998052364
314.00,-101.278917828525,44.721501015212
315.00,-100.728049708362,46.988875875845
316.00,-100.378837840138,48.584441245509
317.00,-100.305576241909,49.982523052209
318.00,-100.277350018168,51.615612473542
319.00,-99.880262282173,53.677728214698
320.00,-98.778192529410,54.541118196135
321.00,-96.935984006842,54.842302863444
322.00,-94.839026729133,54.729297662403
323.00,-92.279490038476,54.538117885860
324.00,-91.112957210592,54.555789121827
325.00,-89.246633129977,54.520027822058
326.00,-87.147294040055,54.467345894185
327.00,-85.284712460219,54.343918575887
328.00,-83.653594421983,54.258879037336
329.00,-82.030135377749,54.079551098982
330.00,-79.714633327051,53.791636706047
331.00,-78.111210254291,54.747397604067
332.00,-77.508065675214,56.265289034476
333.00,-77.260892303928,57.643296771946
334.00,-77.118993948245,59.738497205474
335.00,-77.196502907920,61.369990429164
336.00,-77.206412954479,62.536615005490
337.00,-77.128193701641,64.168074329612
338.00,-76.970299023913,66.262130028667
339.00,-76.988768617315,67.428650489366
340.00,-77.019986265900,68.361461600754
341.00,-77.019986265900,68.361461600754
